#x[cm]		D_0[mm]		D_m[mm]
50			6.61		2.16
47			6.76		2.84
44			7.16		3.57
41			7.52		4.30
38			7.83		6.00
35			8.04		5.51
32			8.10		5.91
29			8.10		6.23
26			8.10		6.51
23			8.07		6.76
20			8.05		7.03
17			7.94		7.05
14			7.84		7.28
11			7.77		7.41
8			7.70		7.48